# Sensor Model: RuOx 
# Serial Number: RuOx5, 
# Description: Thermometer from Weiss Mamuth cryo, Calibrated in Heidelberg ~2015
# Data Format:  lin-lin
# T[K] - R[Ohm] (TR)
0.0051	62996.2
0.0053	62655
0.0055	62315.5
0.0057	61977.7
0.0059	61641.9
0.0061	61308.2
0.0063	60976.3
0.0065	60645.8
0.0067	60315.1
0.0069	59982.1
0.0071	59643.6
0.0073	59296.3
0.0075	58936.8
0.0077	58562.2
0.0079	58170.3
0.0081	57759.3
0.0083	57328.6
0.0085	56878
0.0087	56408
0.0089	55919.5
0.0091	55414
0.0093	54892.9
0.0095	54358.3
0.0097	53811.9
0.0099	53255.7
0.0101	52691.7
0.0103	52121.6
0.0105	51547.4
0.0107	50970.5
0.0109	50392.6
0.0111	49815.1
0.0113	49239.2
0.0115	48666.1
0.0117	48096.8
0.0119	47532.1
0.0121	46972.9
0.0123	46419.8
0.0125	45873.5
0.0127	45334.3
0.0129	44802.7
0.0131	44279
0.0133	43763.5
0.0135	43256.4
0.0137	42757.8
0.0139	42267.8
0.0141	41786.6
0.0143	41314.1
0.0145	40850.3
0.0147	40395.2
0.0149	39948.8
0.0151	39511
0.0153	39081.6
0.0155	38660.7
0.0157	38248
0.0159	37843.4
0.0161	37446.9
0.0163	37058.2
0.0165	36677.3
0.0167	36303.9
0.0169	35938
0.0171	35579.3
0.0173	35227.7
0.0175	34883.1
0.0177	34545.3
0.0179	34214.2
0.0181	33889.5
0.0183	33571.2
0.0185	33259
0.0187	32952.9
0.0189	32652.7
0.0191	32358.3
0.0193	32069.4
0.0195	31786
0.0197	31508
0.0199	31235.2
0.0201	30967.4
0.0203	30704.6
0.0205	30446.7
0.0207	30193.4
0.0209	29944.7
0.0211	29700.6
0.0213	29460.7
0.0215	29225.2
0.0217	28993.8
0.0219	28766.4
0.0221	28543.1
0.0223	28323.5
0.0225	28107.8
0.0227	27895.7
0.0229	27687.2
0.0231	27482.2
0.0233	27280.6
0.0235	27082.3
0.0237	26887.3
0.0239	26695.5
0.0241	26506.7
0.0243	26321
0.0245	26138.3
0.0247	25958.5
0.0249	25781.4
0.0251	25607.2
0.0253	25435.6
0.0255	25266.7
0.0257	25100.3
0.0259	24936.5
0.0261	24775.1
0.0263	24616.2
0.0265	24459.5
0.0267	24305.2
0.0269	24153.2
0.0271	24003.3
0.0273	23855.6
0.0275	23710.1
0.0277	23566.5
0.0279	23425
0.0281	23285.5
0.0283	23147.9
0.0285	23012.3
0.0287	22878.4
0.0289	22746.4
0.0291	22616.2
0.0293	22487.7
0.0295	22361
0.0297	22235.9
0.0299	22112.4
0.030	22051.3
0.0305	21751.6
0.031	21461.4
0.0315	21180.3
0.032	20907.8
0.0325	20643.4
0.033	20387
0.0335	20138
0.034	19896.1
0.0345	19661.2
0.035	19432.7
0.0355	19210.6
0.036	18994.4
0.0365	18784.1
0.037	18579.2
0.0375	18379.7
0.038	18185.3
0.0385	17995.7
0.039	17810.9
0.0395	17630.6
0.04	17454.6
0.0405	17282.9
0.041	17115.2
0.0415	16951.4
0.042	16791.4
0.0425	16634.9
0.043	16482
0.0435	16332.5
0.044	16186.2
0.0445	16043.1
0.045	15903
0.0455	15765.8
0.046	15631.6
0.0465	15500
0.047	15371.2
0.0475	15244.9
0.048	15121.2
0.0485	14999.8
0.049	14880.9
0.0495	14764.2
0.05	14649.7
0.0505	14537.4
0.051	14427.1
0.0515	14318.9
0.052	14212.7
0.0525	14108.4
0.053	14005.9
0.0535	13905.35
0.0545	13713
0.0555	13525.2
0.0565	13343.6
0.0575	13167.9
0.0585	12998
0.0595	12833.4
0.0605	12673.9
0.0615	12519.3
0.0625	12369.4
0.0635	12223.9
0.0645	12082.7
0.0655	11945.6
0.0665	11812.4
0.0675	11682.9
0.0685	11557
0.0695	11434.5
0.0705	11315.2
0.0715	11199.2
0.0725	11086.1
0.0735	10976
0.0745	10868.7
0.0755	10764
0.0765	10662
0.0775	10562.4
0.0785	10465.2
0.0795	10370.4
0.0805	10277.7
0.0815	10187.2
0.0825	10098.8
0.0835	10012.4
0.0845	9927.94
0.0855	9845.32
0.0865	9764.51
0.0875	9685.44
0.0885	9608.06
0.0895	9532.31
0.0905	9458.13
0.0915	9385.49
0.0925	9314.32
0.0935	9244.59
0.0945	9176.25
0.0955	9109.26
0.0965	9043.58
0.0975	8979.16
0.0985	8915.97
0.0995	8853.98
0.1005	8793.14
0.1015	8733.44
0.1025	8674.82
0.1035	8617.28
0.1045	8560.76
0.1055	8505.25
0.1065	8450.72
0.1075	8397.13
0.1085	8344.48
0.1095	8292.72
0.1105	8241.85
0.1115	8191.82
0.1125	8142.63
0.1135	8094.25
0.1145	8046.66
0.1155	7999.83
0.1165	7953.76
0.1175	7908.42
0.1185	7863.8
0.1195	7819.87
0.1205	7776.62
0.1215	7734.04
0.1225	7692.1
0.1235	7650.79
0.1245	7610.1
0.1255	7570.02
0.1265	7530.52
0.1275	7491.6
0.1285	7453.24
0.1295	7415.43
0.1305	7378.16
0.1315	7341.42
0.1325	7305.19
0.1335	7269.46
0.1345	7234.23
0.1355	7199.47
0.1365	7165.19
0.1375	7131.37
0.1385	7098
0.1395	7065.07
0.1405	7032.57
0.1415	7000.5
0.1425	6968.85
0.1435	6937.6
0.1445	6906.75
0.1455	6876.29
0.1465	6846.21
0.1475	6816.51
0.1485	6787.17
0.1495	6758.2
0.1505	6729.58
0.1515	6701.31
0.1525	6673.38
0.1535	6645.78
0.1545	6618.51
0.1555	6591.56
0.1565	6564.93
0.1575	6538.61
0.1585	6512.59
0.1595	6486.87
0.1605	6461.44
0.1615	6436.3
0.1625	6411.44
0.1635	6386.86
0.1645	6362.56
0.1655	6338.52
0.1665	6314.75
0.1675	6291.23
0.1685	6267.97
0.1695	6244.96
0.1705	6222.19
0.1715	6199.67
0.1725	6177.38
0.1735	6155.33
0.1745	6133.5
0.1755	6111.91
0.1765	6090.53
0.1775	6069.37
0.1785	6048.43
0.1795	6027.7
0.1805	6007.18
0.1815	5986.86
0.1825	5966.75
0.1835	5946.83
0.1845	5927.11
0.1855	5907.58
0.1865	5888.23
0.1875	5869.08
0.1885	5850.11
0.1895	5831.32
0.1905	5812.71
0.1915	5794.27
0.1925	5776
0.1935	5757.91
0.1945	5739.98
0.1955	5722.22
0.1965	5704.62
0.1975	5687.18
0.1985	5669.9
0.1995	5652.78
0.2005	5635.81
0.2015	5618.98
0.2025	5602.31
0.2035	5585.79
0.2045	5569.41
0.2055	5553.17
0.2065	5537.07
0.2075	5521.12
0.2085	5505.3
0.2095	5489.61
0.2105	5474.06
0.2115	5458.64
0.2125	5443.35
0.2135	5428.19
0.2145	5413.15
0.2155	5398.24
0.2165	5383.45
0.2175	5368.78
0.2185	5354.23
0.2195	5339.8
0.2205	5325.49
0.2215	5311.29
0.2225	5297.2
0.2235	5283.23
0.2245	5269.37
0.2255	5255.61
0.2265	5241.97
0.2275	5228.43
0.2285	5214.99
0.2295	5201.66
0.2305	5188.44
0.2315	5175.31
0.2325	5162.28
0.2335	5149.36
0.2345	5136.53
0.2355	5123.79
0.2365	5111.15
0.2375	5098.61
0.2385	5086.16
0.2395	5073.8
0.2405	5061.53
0.2415	5049.35
0.2425	5037.26
0.2435	5025.26
0.2445	5013.35
0.2455	5001.52
0.2465	4989.77
0.2475	4978.11
0.2485	4966.53
0.2495	4955.03
0.2505	4943.61
0.2515	4932.28
0.2525	4921.02
0.2535	4909.84
0.2545	4898.74
0.2555	4887.71
0.2565	4876.76
0.2575	4865.88
0.2585	4855.08
0.2595	4844.35
0.2605	4833.69
0.2615	4823.11
0.2625	4812.59
0.2635	4802.15
0.2645	4791.77
0.2655	4781.46
0.2665	4771.22
0.2675	4761.05
0.2685	4750.94
0.2695	4740.9
0.2705	4730.92
0.2715	4721.01
0.2725	4711.16
0.2735	4701.37
0.2745	4691.65
0.2755	4681.99
0.2765	4672.39
0.2775	4662.84
0.2785	4653.36
0.2795	4643.94
0.2805	4634.58
0.2815	4625.27
0.2825	4616.02
0.2835	4606.83
0.2845	4597.69
0.2855	4588.61
0.2865	4579.59
0.2875	4570.62
0.2885	4561.7
0.2895	4552.84
0.2905	4544.03
0.2915	4535.27
0.2925	4526.56
0.2935	4517.91
0.2945	4509.3
0.2955	4500.75
0.2965	4492.25
0.2975	4483.79
0.2985	4475.39
0.2995	4467.03
0.3005	4458.72
0.3015	4450.46
0.3025	4442.25
0.3035	4434.08
0.3045	4425.96
0.3055	4417.89
0.3065	4409.86
0.3075	4401.87
0.3085	4393.93
0.3095	4386.04
0.3105	4378.19
0.3115	4370.38
0.3125	4362.62
0.3135	4354.89
0.3145	4347.21
0.3155	4339.58
0.3165	4331.98
0.3175	4324.42
0.3185	4316.91
0.3195	4309.43
0.3205	4302
0.3215	4294.61
0.3225	4287.25
0.3235	4279.94
0.3245	4272.66
0.3255	4265.42
0.3265	4258.22
0.3275	4251.06
0.3285	4243.93
0.3295	4236.84
0.3305	4229.79
0.3315	4222.77
0.3325	4215.79
0.3335	4208.85
0.3345	4201.94
0.3355	4195.07
0.3365	4188.23
0.3375	4181.43
0.3385	4174.66
0.3395	4167.92
0.3405	4161.22
0.3415	4154.56
0.3425	4147.92
0.3435	4141.32
0.3445	4134.75
0.3455	4128.22
0.3465	4121.71
0.3475	4115.24
0.3485	4108.8
0.3495	4102.39
0.3505	4096.01
0.3515	4089.67
0.3525	4083.35
0.3535	4077.06
0.3545	4070.81
0.3555	4064.58
0.3565	4058.39
0.3575	4052.22
0.3585	4046.08
0.3595	4039.97
0.3605	4033.89
0.3615	4027.84
0.3625	4021.82
0.3635	4015.82
0.3645	4009.86
0.3655	4003.92
0.3665	3998.01
0.3675	3992.12
0.3685	3986.27
0.3695	3980.44
0.3705	3974.63
0.3715	3968.86
0.3725	3963.1
0.3735	3957.38
0.3745	3951.68
0.3755	3946.01
0.3765	3940.36
0.3775	3934.74
0.3785	3929.14
0.3795	3923.57
0.3805	3918.02
0.3815	3912.5
0.3825	3907
0.3835	3901.52
0.3845	3896.07
0.3855	3890.65
0.3865	3885.24
0.3875	3879.86
0.3885	3874.51
0.3895	3869.18
0.3905	3863.87
0.3915	3858.58
0.3925	3853.31
0.3935	3848.07
0.3945	3842.85
0.3955	3837.66
0.3965	3832.48
0.3975	3827.33
0.3985	3822.2
0.3995	3817.09
0.4005	3812
0.4015	3806.93
0.4025	3801.89
0.4035	3796.86
0.4045	3791.86
0.4055	3786.88
0.4065	3781.91
0.4075	3776.97
0.4085	3772.05
0.4095	3767.15
0.4105	3762.27
0.4115	3757.4
0.4125	3752.56
0.4135	3747.74
0.4145	3742.94
0.4155	3738.15
0.4165	3733.39
0.4175	3728.64
0.4185	3723.92
0.4195	3719.21
0.4205	3714.52
0.4215	3709.85
0.4225	3705.2
0.4235	3700.57
0.4245	3695.95
0.4255	3691.36
0.4265	3686.78
0.4275	3682.22
0.4285	3677.67
0.4295	3673.15
0.4305	3668.64
0.4315	3664.15
0.4325	3659.68
0.4335	3655.22
0.4345	3650.78
0.4355	3646.36
0.4365	3641.96
0.4375	3637.57
0.4385	3633.2
0.4395	3628.84
0.4405	3624.51
0.4415	3620.18
0.4425	3615.88
0.4435	3611.59
0.4445	3607.32
0.4455	3603.06
0.4465	3598.82
0.4475	3594.59
0.4485	3590.38
0.4495	3586.19
0.4505	3582.01
0.4515	3577.85
0.4525	3573.7
0.4535	3569.56
0.4545	3565.45
0.4555	3561.34
0.4565	3557.26
0.4575	3553.18
0.4585	3549.13
0.4595	3545.08
0.4605	3541.05
0.4615	3537.04
0.4625	3533.04
0.4635	3529.05
0.4645	3525.08
0.4655	3521.12
0.4665	3517.18
0.4675	3513.25
0.4685	3509.33
0.4695	3505.43
0.4705	3501.55
0.4715	3497.67
0.4725	3493.81
0.4735	3489.96
0.4745	3486.13
0.4755	3482.31
0.4765	3478.5
0.4775	3474.71
0.4785	3470.93
0.4795	3467.16
0.4805	3463.4
0.4815	3459.66
0.4825	3455.93
0.4835	3452.22
0.4845	3448.51
0.4855	3444.82
0.4865	3441.14
0.4875	3437.48
0.4885	3433.82
0.4895	3430.18
0.4905	3426.55
0.4915	3422.94
0.4925	3419.33
0.4935	3415.74
0.4945	3412.16
0.4955	3408.59
0.4965	3405.03
0.4975	3401.49
0.4985	3397.95
0.4995	3394.43
0.5005	3390.92
0.5015	3387.42
0.5025	3383.93
0.5035	3380.46
0.5045	3376.99
0.5055	3373.54
0.5065	3370.1
0.5075	3366.67
0.5085	3363.25
0.5095	3359.84
0.5105	3356.44
0.5115	3353.05
0.5125	3349.68
0.5135	3346.31
0.5145	3342.96
0.5155	3339.62
0.5165	3336.28
0.5175	3332.96
0.5185	3329.65
0.5195	3326.35
0.5205	3323.06
0.5215	3319.77
0.5225	3316.5
0.5235	3313.24
0.5245	3309.99
0.5255	3306.75
0.5265	3303.52
0.5275	3300.3
0.5285	3297.09
0.5295	3293.89
0.5305	3290.7
0.5315	3287.52
0.5325	3284.35
0.5335	3281.19
0.5345	3278.04
0.5355	3274.9
0.5365	3271.77
0.5375	3268.65
0.5385	3265.54
0.5395	3262.43
0.5405	3259.34
0.5415	3256.25
0.5425	3253.18
0.5435	3250.11
0.5445	3247.06
0.5455	3244.01
0.5465	3240.97
0.5475	3237.94
0.5485	3234.92
0.5495	3231.91
0.5505	3228.91
0.5515	3225.91
0.5525	3222.93
0.5535	3219.95
0.5545	3216.99
0.5555	3214.03
0.5565	3211.08
0.5575	3208.14
0.5585	3205.2
0.5595	3202.28
0.5605	3199.36
0.5615	3196.46
0.5625	3193.56
0.5635	3190.67
0.5645	3187.79
0.5655	3184.91
0.5665	3182.05
0.5675	3179.19
0.5685	3176.34
0.5695	3173.5
0.5705	3170.67
0.5715	3167.84
0.5725	3165.03
0.5735	3162.22
0.5745	3159.42
0.5755	3156.63
0.5765	3153.84
0.5775	3151.07
0.5785	3148.3
0.5795	3145.53
0.5805	3142.78
0.5815	3140.04
0.5825	3137.3
0.5835	3134.57
0.5845	3131.84
0.5855	3129.13
0.5865	3126.42
0.5875	3123.72
0.5885	3121.03
0.5895	3118.34
0.5905	3115.66
0.5915	3112.99
0.5925	3110.33
0.5935	3107.67
0.5945	3105.02
0.5955	3102.38
0.5965	3099.75
0.5975	3097.12
0.5985	3094.5
0.5995	3091.89
0.6005	3089.28
0.6015	3086.68
0.6025	3084.09
0.6035	3081.5
0.6045	3078.93
0.6055	3076.35
0.6065	3073.79
0.6075	3071.23
0.6085	3068.68
0.6095	3066.14
0.6105	3063.6
0.6115	3061.07
0.6125	3058.55
0.6135	3056.03
0.6145	3053.52
0.6155	3051.01
0.6165	3048.52
0.6175	3046.03
0.6185	3043.54
0.6195	3041.06
0.6205	3038.59
0.6215	3036.13
0.6225	3033.67
0.6235	3031.22
0.6245	3028.77
0.6255	3026.33
0.6265	3023.9
0.6275	3021.47
0.6285	3019.05
0.6295	3016.64
0.6305	3014.23
0.6315	3011.83
0.6325	3009.43
0.6335	3007.04
0.6345	3004.66
0.6355	3002.28
0.6365	2999.91
0.6375	2997.54
0.6385	2995.18
0.6395	2992.83
0.6405	2990.48
0.6415	2988.14
0.6425	2985.8
0.6435	2983.47
0.6445	2981.15
0.6455	2978.83
0.6465	2976.51
0.6475	2974.21
0.6485	2971.91
0.6495	2969.61
0.6505	2967.32
0.6515	2965.04
0.6525	2962.76
0.6535	2960.48
0.6545	2958.22
0.6555	2955.95
0.6565	2953.7
0.6575	2951.45
0.6585	2949.2
0.6595	2946.96
0.6605	2944.73
0.6615	2942.5
0.6625	2940.27
0.6635	2938.06
0.6645	2935.84
0.6655	2933.64