Sensor Model:   CX-1010-CD-BF0.1
Serial Number:  X129272
Data Format:    4      (Log Ohms/Kelvin)
SetPoint Limit: 325.0      (Kelvin)
Temperature coefficient:  1 (Negative)
Number of Breakpoints:   180

No.   Units      Temperature (K)

1	1.50408	308
2	1.50906	302
3	1.5134	297
4	1.51823	291.5
5	1.52306	286
6	1.52789	280.5
7	1.5329	275
8	1.53808	269.5
9	1.54344	264
10	1.54896	258.5
11	1.55463	253
12	1.56047	247.5
13	1.56645	242
14	1.57258	236.5
15	1.57886	231
16	1.58528	225.5
17	1.59184	220
18	1.59794	215
19	1.60415	210
20	1.61049	205
21	1.61696	200
22	1.62355	195
23	1.63029	190
24	1.63716	185
25	1.64418	180
26	1.65135	175
27	1.65869	170
28	1.66621	165
29	1.67391	160
30	1.68181	155
31	1.68993	150
32	1.69743	145.5
33	1.70513	141
34	1.71305	136.5
35	1.72119	132
36	1.72958	127.5
37	1.73824	123
38	1.74717	118.5
39	1.75641	114
40	1.76489	110
41	1.77365	106
42	1.7827	102
43	1.78969	99
44	1.79566	96.5
45	1.80176	94
46	1.80799	91.5
47	1.81438	89
48	1.82091	86.5
49	1.8276	84
50	1.83446	81.5
51	1.84148	79
52	1.84869	76.5
53	1.85609	74
54	1.86369	71.5
55	1.87149	69
56	1.8779	67
57	1.88445	65
58	1.89116	63
59	1.89803	61
60	1.90508	59
61	1.9123	57
62	1.91972	55
63	1.92735	53
64	1.93519	51
65	1.94327	49
66	1.95076	47.2
67	1.95847	45.4
68	1.96642	43.6
69	1.97463	41.8
70	1.9836	39.9
71	1.99192	38.2
72	2.00055	36.5
73	2.00898	34.9
74	2.01773	33.3
75	2.02686	31.7
76	2.03578	30.2
77	2.0451	28.7
78	2.05486	27.2
79	2.06443	25.8
80	2.07375	24.5
81	2.08354	23.2
82	2.09386	21.9
83	2.10393	20.7
84	2.11185	19.8
85	2.11825	19.1
86	2.12489	18.4
87	2.13178	17.7
88	2.13841	17.05
89	2.1453	16.4
90	2.15247	15.75
91	2.15934	15.15
92	2.16649	14.55
93	2.17394	13.95
94	2.18105	13.4
95	2.18845	12.85
96	2.19618	12.3
97	2.20351	11.8
98	2.21116	11.3
99	2.21916	10.8
100	2.22755	10.3
101	2.23546	9.85
102	2.24376	9.4
103	2.25248	8.95
104	2.26064	8.55
105	2.26921	8.15
106	2.27826	7.75
107	2.28784	7.35
108	2.29803	6.95
109	2.30752	6.6
110	2.31763	6.25
111	2.32907	5.88
112	2.3404	5.54
113	2.35189	5.22
114	2.36352	4.92
115	2.37611	4.62
116	2.38984	4.32
117	2.40388	4.04
118	2.41531	3.83
119	2.42582	3.65
120	2.43707	3.47
121	2.44918	3.29
122	2.4615	3.12
123	2.4748	2.95
124	2.48835	2.79
125	2.50303	2.63
126	2.51797	2.48
127	2.53423	2.33
128	2.55077	2.19
129	2.56882	2.05
130	2.58716	1.92
131	2.60725	1.79
132	2.62762	1.67
133	2.64807	1.56
134	2.67053	1.45
135	2.69536	1.34
136	2.72039	1.24
137	2.73673	1.18
138	2.74973	1.135
139	2.76345	1.09
140	2.77795	1.045
141	2.79333	1
142	2.80782	0.96
143	2.82318	0.92
144	2.83952	0.88
145	2.85695	0.84
146	2.87564	0.8
147	2.89315	0.765
148	2.91191	0.73
149	2.93208	0.695
150	2.95388	0.66
151	2.97757	0.625
152	2.99961	0.595
153	3.02351	0.565
154	3.04954	0.535
155	3.07806	0.505
156	3.10186	0.482
157	3.12411	0.462
158	3.14799	0.442
159	3.17369	0.422
160	3.19855	0.404
161	3.23458	0.38
162	3.26746	0.36
163	3.30329	0.34
164	3.34246	0.32
165	3.38543	0.3
166	3.43273	0.28
167	3.48502	0.26
168	3.54313	0.24
169	3.60821	0.22
170	3.68204	0.2
171	3.73178	0.188
172	3.78693	0.176
173	3.84935	0.164
174	3.92218	0.152
175	4.01085	0.14
176	4.21063	0.121
177	4.31675	0.114
178	4.43091	0.108
179	4.60289	0.101
180	4.63186	0.1
