Sensor Model:   CX-1010-CD-BF0.1
Serial Number:  X131611
Data Format:    4      (Log Ohms/Kelvin)
SetPoint Limit: 325.0      (Kelvin)
Temperature coefficient:  1 (Negative)
Number of Breakpoints:   180

No.   Units      Temperature (K)

1	1.46385	308
2	1.4684	302
3	1.47231	297
4	1.47702	291.5
5	1.48158	286
6	1.48628	280.5
7	1.49112	275
8	1.49608	269.5
9	1.50118	264
10	1.50641	258.5
11	1.51177	253
12	1.51727	247.5
13	1.5229	242
14	1.52866	236.5
15	1.53457	231
16	1.54061	225.5
17	1.5468	220
18	1.55255	215
19	1.55843	210
20	1.56443	205
21	1.57057	200
22	1.57684	195
23	1.58325	190
24	1.58981	185
25	1.59652	180
26	1.60339	175
27	1.61043	170
28	1.61764	165
29	1.62503	160
30	1.63263	155
31	1.64042	150
32	1.64763	145.5
33	1.65502	141
34	1.66261	136.5
35	1.67042	132
36	1.67845	127.5
37	1.68671	123
38	1.69524	118.5
39	1.70403	114
40	1.7121	110
41	1.72041	106
42	1.72898	102
43	1.7356	99
44	1.74124	96.5
45	1.747	94
46	1.75289	91.5
47	1.75892	89
48	1.76508	86.5
49	1.77139	84
50	1.77786	81.5
51	1.78448	79
52	1.79128	76.5
53	1.79826	74
54	1.80544	71.5
55	1.81281	69
56	1.81887	67
57	1.82507	65
58	1.83143	63
59	1.83794	61
60	1.84463	59
61	1.8515	57
62	1.85857	55
63	1.86584	53
64	1.87332	51
65	1.88105	49
66	1.88821	47.2
67	1.8956	45.4
68	1.90322	43.6
69	1.91109	41.8
70	1.9197	39.9
71	1.92768	38.2
72	1.93595	36.5
73	1.94403	34.9
74	1.95241	33.3
75	1.96112	31.7
76	1.96962	30.2
77	1.97848	28.7
78	1.98773	27.2
79	1.99676	25.8
80	2.00552	24.5
81	2.0147	23.2
82	2.02433	21.9
83	2.03368	20.7
84	2.04101	19.8
85	2.04692	19.1
86	2.05304	18.4
87	2.05937	17.7
88	2.06545	17.05
89	2.07176	16.4
90	2.07831	15.75
91	2.08459	15.15
92	2.09112	14.55
93	2.09791	13.95
94	2.10439	13.4
95	2.11114	12.85
96	2.1182	12.3
97	2.12489	11.8
98	2.13189	11.3
99	2.13922	10.8
100	2.14692	10.3
101	2.1542	9.85
102	2.16186	9.4
103	2.16993	8.95
104	2.1775	8.55
105	2.18548	8.15
106	2.19393	7.75
107	2.2029	7.35
108	2.21248	6.95
109	2.22141	6.6
110	2.23095	6.25
111	2.24177	5.88
112	2.25249	5.54
113	2.26337	5.22
114	2.27436	4.92
115	2.28626	4.62
116	2.29919	4.32
117	2.31237	4.04
118	2.32307	3.83
119	2.33287	3.65
120	2.34333	3.47
121	2.35452	3.29
122	2.36587	3.12
123	2.37806	2.95
124	2.39042	2.79
125	2.40374	2.63
126	2.41725	2.48
127	2.43187	2.33
128	2.44668	2.19
129	2.46279	2.05
130	2.4791	1.92
131	2.49692	1.79
132	2.51495	1.67
133	2.53304	1.56
134	2.55289	1.45
135	2.57484	1.34
136	2.597	1.24
137	2.61147	1.18
138	2.623	1.135
139	2.63517	1.09
140	2.64804	1.045
141	2.6617	1
142	2.67459	0.96
143	2.68824	0.92
144	2.70275	0.88
145	2.71823	0.84
146	2.73481	0.8
147	2.75032	0.765
148	2.76689	0.73
149	2.78467	0.695
150	2.80381	0.66
151	2.82452	0.625
152	2.84368	0.595
153	2.86434	0.565
154	2.8867	0.535
155	2.911	0.505
156	2.93114	0.482
157	2.94985	0.462
158	2.96979	0.442
159	2.99109	0.422
160	3.01157	0.404
161	3.04101	0.38
162	3.06765	0.36
163	3.09645	0.34
164	3.1277	0.32
165	3.16173	0.3
166	3.19893	0.28
167	3.2398	0.26
168	3.28498	0.24
169	3.33534	0.22
170	3.39216	0.2
171	3.43021	0.188
172	3.47205	0.176
173	3.51882	0.164
174	3.57227	0.152
175	3.63532	0.14
176	3.76845	0.121
177	3.83469	0.114
178	3.90321	0.108
179	4.00227	0.101
180	4.01855	0.1
